Jan. 16, 2026   13:01:40
A.C. Impedance
File: d:\360movedata\users\20144\desktop\Data Source:  Experiment
Instrument Model:  CHI760E
Header: 
Note: 

Init E (V) = 0
High Frequency (Hz) = 1e+6
Low Frequency (Hz) = 0.01
Imp SF
Amplitude (V) = 0.01
Quiet Time (sec) = 2
Cycles (.1-1Hz) = 1
Cycles (.01-.1Hz) = 1
Cycles (.001-.01Hz) = 1

Freq/Hz, Z'/ohm, Z"/ohm, Z/ohm, Phase/deg

8.252e+5, 8.904e+0, 1.102e+1, 1.416e+1, 51.0
6.816e+5, 8.337e+0, 9.152e+0, 1.238e+1, 47.7
5.625e+5, 7.819e+0, 7.617e+0, 1.092e+1, 44.3
4.639e+5, 7.411e+0, 6.322e+0, 9.741e+0, 40.5
3.828e+5, 7.162e+0, 5.133e+0, 8.812e+0, 35.6
3.164e+5, 7.021e+0, 4.231e+0, 8.197e+0, 31.1
2.607e+5, 6.886e+0, 3.404e+0, 7.682e+0, 26.3
2.158e+5, 6.809e+0, 2.771e+0, 7.351e+0, 22.1
1.777e+5, 6.748e+0, 2.150e+0, 7.082e+0, 17.7
1.465e+5, 6.721e+0, 1.599e+0, 6.909e+0, 13.4
1.211e+5, 6.680e+0, 1.195e+0, 6.786e+0, 10.1
9.961e+4, 6.670e+0, 7.685e-1, 6.714e+0, 6.6
8.252e+4, 6.684e+0, 3.861e-1, 6.695e+0, 3.3
6.812e+4, 6.691e+0, 2.173e-2, 6.691e+0, 0.2
5.615e+4, 6.694e+0, -3.326e-1, 6.702e+0, -2.8
4.639e+4, 6.712e+0, -6.934e-1, 6.748e+0, -5.9
3.833e+4, 6.747e+0, -1.074e+0, 6.832e+0, -9.0
3.174e+4, 6.785e+0, -1.475e+0, 6.944e+0, -12.3
2.612e+4, 6.846e+0, -1.928e+0, 7.112e+0, -15.7
2.148e+4, 6.936e+0, -2.432e+0, 7.350e+0, -19.3
1.782e+4, 7.009e+0, -2.964e+0, 7.610e+0, -22.9
1.465e+4, 7.139e+0, -3.648e+0, 8.017e+0, -27.1
1.221e+4, 7.298e+0, -4.342e+0, 8.492e+0, -30.7
1.001e+4, 7.448e+0, -5.252e+0, 9.113e+0, -35.2
8.301e+3, 7.645e+0, -6.256e+0, 9.878e+0, -39.3
6.836e+3, 7.893e+0, -7.449e+0, 1.085e+1, -43.3
5.615e+3, 8.211e+0, -8.874e+0, 1.209e+1, -47.2
4.639e+3, 8.595e+0, -1.050e+1, 1.357e+1, -50.7
3.906e+3, 9.011e+0, -1.219e+1, 1.516e+1, -53.5
3.174e+3, 9.630e+0, -1.459e+1, 1.748e+1, -56.6
2.686e+3, 1.025e+1, -1.685e+1, 1.972e+1, -58.7
2.197e+3, 1.114e+1, -1.997e+1, 2.287e+1, -60.9
1.709e+3, 1.256e+1, -2.468e+1, 2.769e+1, -63.0
1.465e+3, 1.362e+1, -2.797e+1, 3.111e+1, -64.0
1.221e+3, 1.516e+1, -3.252e+1, 3.588e+1, -65.0
9.766e+2, 1.747e+1, -3.903e+1, 4.276e+1, -65.9
8.252e+2, 1.964e+1, -4.471e+1, 4.884e+1, -66.3
6.836e+2, 2.250e+1, -5.194e+1, 5.661e+1, -66.6
5.615e+2, 2.614e+1, -6.064e+1, 6.603e+1, -66.7
4.639e+2, 3.034e+1, -7.025e+1, 7.652e+1, -66.6
3.809e+2, 3.562e+1, -8.160e+1, 8.903e+1, -66.4
3.174e+2, 4.142e+1, -9.343e+1, 1.022e+2, -66.1
2.588e+2, 4.907e+1, -1.083e+2, 1.189e+2, -65.6
2.148e+2, 5.736e+1, -1.237e+2, 1.364e+2, -65.1
1.758e+2, 6.788e+1, -1.423e+2, 1.576e+2, -64.5
1.465e+2, 7.884e+1, -1.609e+2, 1.792e+2, -63.9
1.221e+2, 9.120e+1, -1.816e+2, 2.032e+2, -63.3
9.766e+1, 1.088e+2, -2.096e+2, 2.361e+2, -62.6
8.254e+1, 1.237e+2, -2.332e+2, 2.640e+2, -62.1
6.813e+1, 1.434e+2, -2.642e+2, 3.006e+2, -61.5
5.623e+1, 1.655e+2, -2.986e+2, 3.414e+2, -61.0
4.642e+1, 1.900e+2, -3.367e+2, 3.866e+2, -60.6
3.831e+1, 2.177e+2, -3.802e+2, 4.381e+2, -60.2
3.162e+1, 2.482e+2, -4.289e+2, 4.955e+2, -59.9
2.610e+1, 2.818e+2, -4.836e+2, 5.597e+2, -59.8
2.154e+1, 3.189e+2, -5.461e+2, 6.324e+2, -59.7
1.778e+1, 3.595e+2, -6.173e+2, 7.143e+2, -59.8
1.468e+1, 4.043e+2, -6.991e+2, 8.076e+2, -60.0
1.212e+1, 4.533e+2, -7.930e+2, 9.134e+2, -60.2
1.000e+1, 5.068e+2, -9.012e+2, 1.034e+3, -60.7
8.254e+0, 5.647e+2, -1.025e+3, 1.170e+3, -61.1
6.813e+0, 6.291e+2, -1.173e+3, 1.331e+3, -61.8
5.623e+0, 6.998e+2, -1.345e+3, 1.516e+3, -62.5
4.642e+0, 7.771e+2, -1.547e+3, 1.732e+3, -63.3
3.831e+0, 8.604e+2, -1.790e+3, 1.986e+3, -64.3
3.162e+0, 9.543e+2, -2.055e+3, 2.265e+3, -65.1
2.610e+0, 1.071e+3, -2.422e+3, 2.648e+3, -66.1
2.154e+0, 1.192e+3, -2.788e+3, 3.033e+3, -66.8
1.778e+0, 1.306e+3, -3.371e+3, 3.615e+3, -68.8
1.468e+0, 1.460e+3, -3.894e+3, 4.159e+3, -69.4
1.212e+0, 1.638e+3, -4.494e+3, 4.783e+3, -70.0
1.000e+0, 1.853e+3, -5.208e+3, 5.528e+3, -70.4
8.254e-1, 2.098e+3, -6.052e+3, 6.406e+3, -70.9
