Jan. 17, 2026   15:20:17
A.C. Impedance
File: d:\360movedata\users\20144\desktop\Data Source:  Experiment
Instrument Model:  CHI760E
Header: 
Note: 

Init E (V) = 0
High Frequency (Hz) = 1e+6
Low Frequency (Hz) = 0.01
Imp SF
Amplitude (V) = 0.01
Quiet Time (sec) = 2
Cycles (.1-1Hz) = 1
Cycles (.01-.1Hz) = 1
Cycles (.001-.01Hz) = 1

Freq/Hz, Z'/ohm, Z"/ohm, Z/ohm, Phase/deg

8.252e+5, 6.624e+1, -3.965e+1, 7.720e+1, -30.9
6.816e+5, 7.300e+1, -4.206e+1, 8.425e+1, -30.0
5.625e+5, 7.997e+1, -4.226e+1, 9.046e+1, -27.9
4.639e+5, 8.637e+1, -4.335e+1, 9.663e+1, -26.7
3.828e+5, 9.275e+1, -4.437e+1, 1.028e+2, -25.6
3.164e+5, 9.930e+1, -4.436e+1, 1.088e+2, -24.1
2.607e+5, 1.056e+2, -4.466e+1, 1.146e+2, -22.9
2.158e+5, 1.109e+2, -4.361e+1, 1.191e+2, -21.5
1.777e+5, 1.167e+2, -4.260e+1, 1.243e+2, -20.1
1.465e+5, 1.225e+2, -4.233e+1, 1.296e+2, -19.1
1.211e+5, 1.277e+2, -4.061e+1, 1.340e+2, -17.6
9.961e+4, 1.331e+2, -3.451e+1, 1.375e+2, -14.5
8.252e+4, 1.380e+2, -3.407e+1, 1.422e+2, -13.9
6.812e+4, 1.425e+2, -3.353e+1, 1.464e+2, -13.2
5.615e+4, 1.468e+2, -3.307e+1, 1.505e+2, -12.7
4.639e+4, 1.507e+2, -3.202e+1, 1.540e+2, -12.0
3.833e+4, 1.544e+2, -3.169e+1, 1.576e+2, -11.6
3.174e+4, 1.578e+2, -3.065e+1, 1.607e+2, -11.0
2.612e+4, 1.606e+2, -3.042e+1, 1.634e+2, -10.7
2.148e+4, 1.634e+2, -2.972e+1, 1.661e+2, -10.3
1.782e+4, 1.665e+2, -2.971e+1, 1.691e+2, -10.1
1.465e+4, 1.692e+2, -2.993e+1, 1.718e+2, -10.0
1.221e+4, 1.710e+2, -2.977e+1, 1.735e+2, -9.9
1.001e+4, 1.717e+2, -2.981e+1, 1.743e+2, -9.8
8.301e+3, 1.764e+2, -3.273e+1, 1.794e+2, -10.5
6.836e+3, 1.789e+2, -3.467e+1, 1.822e+2, -11.0
5.615e+3, 1.813e+2, -3.704e+1, 1.850e+2, -11.5
4.639e+3, 1.837e+2, -3.974e+1, 1.879e+2, -12.2
3.906e+3, 1.862e+2, -4.326e+1, 1.912e+2, -13.1
3.174e+3, 1.894e+2, -4.794e+1, 1.953e+2, -14.2
2.686e+3, 1.919e+2, -5.250e+1, 1.989e+2, -15.3
2.197e+3, 1.957e+2, -5.867e+1, 2.043e+2, -16.7
1.709e+3, 2.010e+2, -6.757e+1, 2.120e+2, -18.6
1.465e+3, 2.040e+2, -7.463e+1, 2.172e+2, -20.1
1.221e+3, 2.079e+2, -8.382e+1, 2.242e+2, -22.0
9.766e+2, 2.138e+2, -9.707e+1, 2.348e+2, -24.4
8.252e+2, 2.184e+2, -1.084e+2, 2.438e+2, -26.4
6.836e+2, 2.237e+2, -1.238e+2, 2.557e+2, -29.0
5.615e+2, 2.298e+2, -1.429e+2, 2.706e+2, -31.9
4.639e+2, 2.362e+2, -1.648e+2, 2.880e+2, -34.9
3.809e+2, 2.432e+2, -1.917e+2, 3.097e+2, -38.2
3.174e+2, 2.507e+2, -2.211e+2, 3.342e+2, -41.4
2.588e+2, 2.596e+2, -2.603e+2, 3.676e+2, -45.1
2.148e+2, 2.689e+2, -3.028e+2, 4.049e+2, -48.4
1.758e+2, 2.806e+2, -3.575e+2, 4.545e+2, -51.9
1.465e+2, 2.921e+2, -4.167e+2, 5.089e+2, -55.0
1.221e+2, 3.060e+2, -4.863e+2, 5.745e+2, -57.8
9.766e+1, 3.251e+2, -5.866e+2, 6.707e+2, -61.0
8.254e+1, 3.435e+2, -6.775e+2, 7.596e+2, -63.1
6.813e+1, 3.695e+2, -8.015e+2, 8.826e+2, -65.2
5.623e+1, 4.003e+2, -9.481e+2, 1.029e+3, -67.1
4.642e+1, 4.393e+2, -1.119e+3, 1.202e+3, -68.6
3.831e+1, 4.842e+2, -1.325e+3, 1.410e+3, -69.9
3.162e+1, 5.382e+2, -1.562e+3, 1.652e+3, -71.0
2.610e+1, 6.061e+2, -1.846e+3, 1.942e+3, -71.8
2.154e+1, 6.888e+2, -2.181e+3, 2.287e+3, -72.5
1.778e+1, 7.894e+2, -2.570e+3, 2.688e+3, -72.9
1.468e+1, 9.129e+2, -3.034e+3, 3.168e+3, -73.3
1.212e+1, 1.064e+3, -3.577e+3, 3.732e+3, -73.4
1.000e+1, 1.262e+3, -4.255e+3, 4.439e+3, -73.5
8.254e+0, 1.482e+3, -4.967e+3, 5.183e+3, -73.4
6.813e+0, 1.755e+3, -5.842e+3, 6.099e+3, -73.3
5.623e+0, 2.069e+3, -6.884e+3, 7.189e+3, -73.3
4.642e+0, 2.487e+3, -8.041e+3, 8.417e+3, -72.8
3.831e+0, 3.041e+3, -9.373e+3, 9.854e+3, -72.0
3.162e+0, 3.575e+3, -1.098e+4, 1.155e+4, -72.0
2.610e+0, 4.335e+3, -1.286e+4, 1.357e+4, -71.4
2.154e+0, 5.078e+3, -1.487e+4, 1.571e+4, -71.1
1.778e+0, 6.020e+3, -1.772e+4, 1.872e+4, -71.2
1.468e+0, 7.243e+3, -2.048e+4, 2.172e+4, -70.5
1.212e+0, 8.682e+3, -2.362e+4, 2.517e+4, -69.8
1.000e+0, 1.073e+4, -2.731e+4, 2.934e+4, -68.6
8.254e-1, 1.289e+4, -3.137e+4, 3.392e+4, -67.7
6.813e-1, 1.547e+4, -3.601e+4, 3.920e+4, -66.7
5.623e-1, 1.847e+4, -4.074e+4, 4.473e+4, -65.6
4.642e-1, 2.173e+4, -4.610e+4, 5.097e+4, -64.8
3.831e-1, 2.532e+4, -5.238e+4, 5.818e+4, -64.2
3.162e-1, 3.009e+4, -5.889e+4, 6.614e+4, -62.9
2.610e-1, 3.540e+4, -6.671e+4, 7.552e+4, -62.0
2.154e-1, 4.113e+4, -7.473e+4, 8.530e+4, -61.2
1.778e-1, 4.767e+4, -8.345e+4, 9.610e+4, -60.3
1.468e-1, 5.516e+4, -9.368e+4, 1.087e+5, -59.5
1.212e-1, 6.210e+4, -1.056e+5, 1.225e+5, -59.5
1.000e-1, 7.010e+4, -1.167e+5, 1.361e+5, -59.0
8.254e-2, 8.406e+4, -1.326e+5, 1.570e+5, -57.6
